Potential [ V],di [µA/]
-1,148.6200053
-0.999549985,144.5359958
-0.999100029,140.6619995
-0.998650014,137.023002
-0.998199999,133.8080037
-0.997749984,131.0569933
-0.997300029,128.6829938
-0.996850014,126.739993
-0.996399999,125.1929934
-0.995949984,123.7969991
-0.995500028,122.6349996
-0.995050013,121.8329999
-0.994599998,121.006
-0.994149983,120.1859995
-0.993700027,119.4860015
-0.993250012,118.8120004
-0.992799997,118.1059997
-0.992349982,117.6139995
-0.991900027,117.2310003
-0.991450012,116.8550007
-0.990999997,116.3859997
-0.990549982,115.8480009
-0.990100026,115.2920013
-0.989650011,114.6970026
-0.989199996,114.1109969
-0.988749981,113.7159998
-0.988300025,113.2909965
-0.98785001,112.8419972
-0.987399995,112.5229974
-0.98694998,112.2539979
-0.986500025,111.825997
-0.98605001,111.5530031
-0.985599995,111.2009995
-0.98514998,110.6209966
-0.984700024,109.927998
-0.984250009,109.3559986
-0.983799994,108.6710035
-0.983349979,108.1640003
-0.982900023,107.9020003
-0.982450008,107.8540008
-0.981999993,107.7280031
-0.981549978,107.6780027
-0.981100023,107.5839973
-0.980650008,107.3680032
-0.980199993,106.9450009
-0.979749978,106.6330005
-0.979300022,106.3399977
-0.978850007,105.9499991
-0.978399992,105.5340035
-0.977949977,105.2259977
-0.977500021,104.7510013
-0.977050006,104.1459982
-0.976599991,103.6269969
-0.976149976,103.0720014
-0.975700021,102.4939993
-0.975250006,102.0790005
-0.974799991,101.7239993
-0.974349976,101.2349967
-0.97390002,100.8659965
-0.973450005,100.5200029
-0.97299999,100.0429984
-0.972549975,99.66990183
-0.972100019,99.45019701
-0.971650004,99.29989756
-0.971199989,99.15269766
-0.970749974,99.15210103
-0.970300019,99.0851986
-0.969850004,98.97229756
-0.969399989,98.64039748
-0.968949974,98.37539983
-0.968500018,98.08890172
-0.968050003,97.77110245
-0.967599988,97.51159814
-0.967149973,97.57110092
-0.966700017,97.55569772
-0.966250002,97.54899656
-0.965799987,97.598102
-0.965349972,97.57479711
-0.964900017,97.25079872
-0.964450002,96.86560225
-0.963999987,96.32630099
-0.963549972,95.76560115
-0.963100016,95.2367991
-0.962650001,94.86440104
-0.962199986,94.58769637
-0.961749971,94.46559852
-0.961300015,94.31409853
-0.96085,94.15030217
-0.960399985,93.9422971
-0.95994997,93.67849998
-0.959500015,93.44040154
-0.95905,93.41829718
-0.958599985,93.45880244
-0.958150029,93.61770208
-0.957700014,93.93369692
-0.957249999,94.21769937
-0.956799984,94.29689817
-0.956350029,94.39320274
-0.955900013,94.29990314
-0.955449998,94.05449964
-0.954999983,93.73739886
-0.954550028,93.40490215
-0.954100013,92.99570229
-0.953649998,92.66739653
-0.953199983,92.41780208
-0.952750027,92.24349924
-0.952300012,92.17049956
-0.951849997,92.06440154
-0.951399982,91.95890016
-0.950950027,91.73189756
-0.950500011,91.46070079
-0.950049996,91.10670362
-0.949599981,90.82270117
-0.949150026,90.58279829
-0.948700011,90.37239943
-0.948249996,90.18280252
-0.947799981,90.11960356
-0.947350025,90.04840103
-0.94690001,90.08029883
-0.946449995,90.25759937
-0.94599998,90.46070045
-0.945550025,90.55819828
-0.945100009,90.64900223
-0.944649994,90.53800022
-0.944199979,90.3698965
-0.943750024,90.12819646
-0.943300009,89.80980056
-0.942849994,89.57360114
-0.942399979,89.28219904
-0.941950023,88.85950228
-0.941500008,88.39450311
-0.941049993,88.08590064
-0.940599978,87.80739881
-0.940150023,87.7827988
-0.939700007,88.04719982
-0.939249992,88.6748021
-0.938799977,89.44360161
-0.938350022,90.05519678
-0.937900007,90.52210225
-0.937449992,90.85090278
-0.936999977,90.96250142
-0.936550021,90.86189675
-0.936100006,90.88950173
-0.935649991,91.05580102
-0.935199976,91.18339949
-0.934750021,91.30180115
-0.934300005,91.48030222
-0.93384999,91.52630082
-0.933399975,91.44719661
-0.93295002,91.39379836
-0.932500005,91.25759971
-0.93204999,91.08090308
-0.931599975,91.04039782
-0.931150019,91.02270269
-0.930700004,90.94169945
-0.930249989,90.94039706
-0.929799974,90.91039828
-0.929350019,90.77110008
-0.928900003,90.60119919
-0.928449988,90.46500054
-0.927999973,90.24910105
-0.927550018,90.07239714
-0.927100003,89.86250032
-0.926649988,89.7373975
-0.926199973,89.60300329
-0.925750017,89.46440357
-0.925300002,89.2852986
-0.924849987,89.25829752
-0.924399972,89.07549636
-0.923950016,88.97850057
-0.923500001,88.99819659
-0.923049986,89.10670294
-0.922599971,89.09260214
-0.922150016,89.1232994
-0.921700001,89.00860121
-0.921249986,88.87050353
-0.920799971,88.7066999
-0.920350015,88.5276022
-0.9199,88.49999722
-0.919449985,88.62640243
-0.91900003,88.74719788
-0.918550014,88.82940165
-0.918099999,88.9790972
-0.917649984,88.97670341
-0.917200029,88.83429837
-0.916750014,88.56320346
-0.916299999,88.32079766
-0.915849984,88.05520338
-0.915400028,87.897497
-0.914950013,87.80859935
-0.914499998,87.88770356
-0.914049983,87.9588988
-0.913600028,88.07730046
-0.913150012,88.1399028
-0.912699997,88.27479905
-0.912249982,88.3834
-0.911800027,88.51959865
-0.911350012,88.68650184
-0.910899997,88.83920236
-0.910449982,88.93490303
-0.910000026,89.0299998
-0.909550011,89.08219752
-0.909099996,89.12019985
-0.908649981,89.25890143
-0.908200026,89.35580263
-0.90775001,89.41649867
-0.907299995,89.52760254
-0.90684998,89.58770195
-0.906400025,89.53190263
-0.90595001,89.46379967
-0.905499995,89.37109669
-0.90504998,89.18040112
-0.904600024,88.98830129
-0.904150009,88.88400043
-0.903699994,88.84909766
-0.903249979,88.78709923
-0.902800024,88.84719864
-0.902350008,88.92209735
-0.901899993,88.88830052
-0.901449978,88.80060341
-0.901000023,88.84350245
-0.900550008,88.79019879
-0.900099993,88.72569742
-0.899649978,88.71409955
-0.899200022,88.75210187
-0.898750007,88.69259909
-0.898299992,88.67910219
-0.897849977,88.63859694
-0.897400022,88.6238995
-0.896950006,88.57910143
-0.896499991,88.56070053
-0.896049976,88.59510126
-0.895600021,88.67539873
-0.895150006,88.7221031
-0.894699991,88.80120004
-0.894249976,88.82209659
-0.89380002,88.74289779
-0.893350005,88.70859892
-0.89289999,88.70979946
-0.892449975,88.66559801
-0.89200002,88.76190259
-0.891550004,88.94599887
-0.891099989,89.05830327
-0.890649974,89.1551972
-0.890200019,89.24290159
-0.889750004,89.21160043
-0.889299989,89.14720092
-0.888849974,89.04290007
-0.888400018,88.88530283
-0.887950003,88.73189654
-0.887499988,88.65889686
-0.887049973,88.55890337
-0.886600018,88.64419942
-0.886150002,88.82019756
-0.885699987,89.04169954
-0.885249972,89.1551972
-0.884800017,89.31959746
-0.884350002,89.28099851
-0.883899987,89.20669643
-0.883449972,89.12140038
-0.883000016,89.13680358
-0.882550001,89.04169954
-0.882099986,89.06870062
-0.881649971,89.03739945
-0.881200016,89.03250273
-0.88075,89.00860121
-0.880299985,89.12509657
-0.87984997,89.22570123
-0.879400015,89.44910223
-0.87895,89.67539907
-0.878499985,89.83069711
-0.878050029,89.88100308
-0.877600014,89.84540182
-0.877149999,89.71780335
-0.876699984,89.56009697
-0.876250029,89.47360038
-0.875800014,89.43000284
-0.875349998,89.45640002
-0.874899983,89.52330245
-0.874450028,89.57109821
-0.874000013,89.64289736
-0.873549998,89.74540106
-0.873099983,89.88960326
-0.872650027,90.02940351
-0.872200012,90.20369907
-0.871749997,90.32509843
-0.871299982,90.39510041
-0.870850027,90.30920046
-0.870400012,90.17180128
-0.869949996,90.02759907
-0.869499981,89.90550123
-0.869050026,89.81290011
-0.868600011,89.83370208
-0.868149996,89.87049659
-0.867699981,89.90489732
-0.867250025,89.91159848
-0.86680001,89.91530194
-0.866349995,89.95830285
-0.86589998,90.030102
-0.865450025,90.0435989
-0.86500001,90.08590132
-0.864549994,90.12580267
-0.864099979,90.11840302
-0.863650024,90.0790983
-0.863200009,90.06619803
-0.862749994,90.05089669
-0.862299979,90.08099732
-0.861850023,90.12270311
-0.861400008,90.28399654
-0.860949993,90.51780216
-0.860499978,90.80120071
-0.860050023,91.02079639
-0.859600008,91.25390352
-0.859149992,91.32140258
-0.858699977,91.31409752
-0.858250022,91.11959662
-0.857800007,90.9661976
-0.857349992,90.70240048
-0.856899977,90.5459965
-0.856450021,90.43000318
-0.856000006,90.56930139
-0.855549991,90.69080261
-0.855099976,90.93250264
-0.854650021,91.17479931
-0.854200006,91.39080066
-0.85374999,91.43549687
-0.853299975,91.52139683
-0.85285002,91.56620217
-0.852400005,91.55699809
-0.85194999,91.56190208
-0.851499975,91.63309733
-0.851050019,91.62329661
-0.850600004,91.63739742
-0.850149989,91.70729754
-0.849699974,91.74169827
-0.849250019,91.79199697
-0.848800004,91.86260286
-0.848349988,91.9692975
-0.847899973,92.08400297
-0.847450018,92.29320131
-0.847000003,92.4545966
-0.846549988,92.61709783
-0.846099973,92.7275978
-0.845650017,92.76560013
-0.845200002,92.7459987
-0.844749987,92.76869969
-0.844299972,92.78219659
-0.843850017,92.72449824
-0.843400002,92.63800166
-0.842949986,92.54660108
-0.842499971,92.42450324
-0.842050016,92.39999781
-0.841600001,92.50429866
-0.841149986,92.70919691
-0.840699971,92.96499775
-0.840250015,93.33119669
-0.8398,93.75390073
-0.839349985,94.12450163
-0.83890003,94.48640049
-0.838450015,94.74960098
-0.838,94.8158995
-0.837549984,94.69749784
-0.837100029,94.59629655
-0.836650014,94.50729704
-0.836199999,94.5428983
-0.835749984,94.66309712
-0.835300028,94.78950233
-0.834850013,94.88889918
-0.834399998,95.03369802
-0.833949983,95.18639854
-0.833500028,95.47350055
-0.833050013,95.86920351
-0.832599998,96.32569709
-0.832149982,96.66619735
-0.831700027,96.88400314
-0.831250012,96.9870016
-0.830799997,97.09069855
-0.830349982,97.25020209
-0.829900026,97.44099953
-0.829450011,97.7403979
-0.828999996,98.1159028
-0.828549981,98.45940076
-0.828100026,98.67420158
-0.827650011,98.93730021
-0.827199996,99.22689787
-0.82674998,99.40170276
-0.826300025,99.60729949
-0.82585001,99.91339903
-0.825399995,100.2089994
-0.82494998,100.4610021
-0.824500024,100.8420004
-0.824050009,101.2740031
-0.823599994,101.7079994
-0.823149979,102.2180004
-0.822700024,102.7920007
-0.822250009,103.2529981
-0.821799994,103.6940012
-0.821349978,104.0959978
-0.820900023,104.4419987
-0.820450008,104.6969992
-0.819999993,105.0689971
-0.819549978,105.4199965
-0.819100022,105.8170019
-0.818650007,106.2349984
-0.818199992,106.6640034
-0.817749977,107.0119979
-0.817300022,107.2379964
-0.816850007,107.3189997
-0.816399992,107.3629974
-0.815949976,107.3609965
-0.815500021,107.3739986
-0.815050006,107.5749969
-0.814599991,107.8650021
-0.814149976,108.1869996
-0.81370002,108.6269986
-0.813250005,109.1130034
-0.81279999,109.4510008
-0.812349975,109.8939974
-0.81190002,110.275003
-0.811450005,110.6690033
-0.81099999,111.1340025
-0.810549974,111.825997
-0.810100019,112.5080016
-0.809650004,113.2949983
-0.809199989,114.0000022
-0.808749974,114.6470022
-0.808300018,115.0430035
-0.807850003,115.4190031
-0.807399988,115.7880033
-0.806949973,116.242998
-0.806500018,116.604002
-0.806050003,117.1330005
-0.805599988,117.5989964
-0.805149972,118.1100015
-0.804700017,118.6559966
-0.804250002,119.3650023
-0.803799987,120.1289997
-0.803349972,120.9789989
-0.802900016,121.7289973
-0.802450001,122.4209991
-0.801999986,123.0460039
-0.801549971,123.6649987
-0.801100016,124.2319995
-0.800650001,124.9089983
-0.800199986,125.6709947
-0.79974997,126.4419989
-0.799300015,127.0159992
-0.79885,127.5459945
-0.798399985,127.9940043
-0.797950029,128.353
-0.797500014,128.8100029
-0.797049999,129.4940012
-0.796599984,130.4059988
-0.796150029,131.3289977
-0.795700014,132.2320022
-0.795249999,133.0270024
-0.794799984,133.7110007
-0.794350028,134.2600008
-0.793900013,134.8859951
-0.793449998,135.6269931
-0.792999983,136.2869953
-0.792550027,137.0160026
-0.792100012,137.7129956
-0.791649997,138.3570052
-0.791199982,138.9770041
-0.790750027,139.7900051
-0.790300012,140.5509975
-0.789849997,141.3319987
-0.789399981,142.0729968
-0.788950026,142.6709932
-0.788500011,143.0730044
-0.788049996,143.487996
-0.787599981,143.8420004
-0.787150025,144.2009961
-0.78670001,144.6060051
-0.786249995,145.1779972
-0.78579998,145.6320024
-0.785350025,146.1329957
-0.78490001,146.6789981
-0.784449995,147.3110024
-0.783999979,147.8920021
-0.783550024,148.6389956
-0.783100009,149.3760064
-0.782649994,150.1630031
-0.782199979,150.9340073
-0.781750023,151.7159981
-0.781300008,152.4700056
-0.780849993,153.4049952
-0.780399978,154.3169928
-0.779950023,155.294998
-0.779500008,156.2789985
-0.779049993,157.2159963
-0.778599977,158.0149983
-0.778150022,158.8559971
-0.777700007,159.6539951
-0.777249992,160.4849967
-0.776799977,161.4369976
-0.776350021,162.301003
-0.775900006,163.011995
-0.775449991,163.706005
-0.774999976,164.2900024
-0.774550021,164.8140023
-0.774100006,165.4560037
-0.773649991,166.1879942
-0.773199975,166.8699988
-0.77275002,167.6099928
-0.772300005,168.159997
-0.77184999,168.6320029
-0.771399975,169.0570061
-0.770950019,169.4829989
-0.770500004,169.8599954
-0.770049989,170.5509931
-0.769599974,171.3459933
-0.769150019,172.1599983
-0.768700004,173.0070071
-0.768249989,173.9569998
-0.767799973,174.67
-0.767350018,175.2550015
-0.766900003,175.905996
-0.766449988,176.4939952
-0.765999973,176.9170049
-0.765550017,177.355003
-0.765100002,177.7980069
-0.764649987,178.0750026
-0.764199972,178.4119959
-0.763750017,178.7130022
-0.763300002,178.9929956
-0.762849987,179.1859977
-0.762399971,179.434006
-0.761950016,179.6040015
-0.761500001,179.841998
-0.761049986,180.1320032
-0.760599971,180.574003
-0.760150015,181.2209957
-0.7597,181.9299941
-0.759249985,182.845004
-0.75880003,183.9509932
-0.758350015,185.1499983
-0.7579,186.1659985
-0.757449985,187.3209985
-0.757000029,188.3689984
-0.756550014,189.2360015
-0.756099999,190.0450006
-0.755649984,190.9099956
-0.755200028,191.6500041
-0.754750013,192.3779928
-0.754299998,193.2209998
-0.753849983,194.0340007
-0.753400028,194.8080026
-0.752950013,195.6180058
-0.752499998,196.4929979
-0.752049983,197.1640013
-0.751600027,197.7369975
-0.751150012,198.320995
-0.750699997,198.8190052
-0.750249982,199.1860045
-0.749800026,199.6350038
-0.749350011,200.1230023
-0.748899996,200.5830029
-0.748449981,201.0769967
-0.748000026,201.6390063
-0.747550011,202.2459958
-0.747099996,202.9110037
-0.746649981,203.632997
-0.746200025,204.3449931
-0.74575001,205.0040057
-0.745299995,205.6649973
-0.74484998,206.3499996
-0.744400024,206.9729962
-0.743950009,207.6249948
-0.743499994,208.1790008
-0.743049979,208.6250024
-0.742600024,208.9850022
-0.742150009,209.3100047
-0.741699994,209.7240067
-0.741249979,210.2290018
-0.740800023,210.8790068
-0.740350008,211.5770039
-0.739899993,212.4669991
-0.739449978,213.1880028
-0.739000022,214.0760043
-0.738550007,214.9219945
-0.738099992,215.7629933
-0.737649977,216.586006
-0.737200022,217.3940011
-0.736750007,218.043002
-0.736299992,218.6240017
-0.735849977,219.116002
-0.735400021,219.2380052
-0.734950006,219.5480047
-0.734499991,219.7819995
-0.734049976,220.0370072
-0.73360002,220.3259937
-0.733150005,220.9329978
-0.73269999,221.2300024
-0.732249975,221.4910055
-0.73180002,221.6300054
-0.731350005,221.6180001
-0.73089999,221.3130065
-0.730449975,221.1670071
-0.730000019,221.1579995
-0.729550004,221.2050022
-0.729099989,221.4190026
-0.728649974,221.8529989
-0.728200018,222.3299962
-0.727750003,222.704999
-0.727299988,223.2620027
-0.726849973,223.8279994
-0.726400018,224.5490032
-0.725950003,225.1279948
-0.725499988,225.7620072
-0.725049973,226.1649934
-0.724600017,226.5460062
-0.724150002,226.573
-0.723699987,226.7539967
-0.723249972,226.9109973
-0.722800016,227.0489931
-0.722350001,227.0440018
-0.721899986,227.1809935
-0.721449971,227.2080019
-0.721000016,227.2840065
-0.720550001,227.594006
-0.720099986,228.1479974
-0.719649971,228.7429961
-0.719200015,229.4540027
-0.71875,230.0299966
-0.718299985,230.428006
-0.717850029,230.6740062
-0.717400014,230.8849944
-0.716949999,230.959995
-0.716499984,231.1840071
-0.716050029,231.397993
-0.715600014,231.7470062
-0.715149999,232.0549975
-0.714699984,232.3770022
-0.714250028,232.595994
-0.713800013,232.913997
-0.713349998,233.0519928
-0.712899983,233.2809963
-0.712450027,233.5739991
-0.712000012,233.8610066
-0.711549997,234.0469946
-0.711099982,234.2619991
-0.710650027,234.4340028
-0.710200012,234.5469984
-0.709749997,234.6940018
-0.709299982,234.7380068
-0.708850026,234.8109992
-0.708400011,234.8160051
-0.707949996,234.8080016
-0.707499981,234.844003
-0.707050025,235.2070005
-0.70660001,235.5000033
-0.706149995,235.761996
-0.70569998,236.0100043
-0.705250025,236.1579973
-0.70480001,235.9929931
-0.704349995,235.9950013
-0.70389998,236.0899962
-0.703450024,236.2709929
-0.703000009,236.4660031
-0.702549994,236.8440037
-0.702099979,237.1050068
-0.701650023,237.3930038
-0.701200008,237.6009943
-0.700749993,237.9109937
-0.700299978,238.092005
-0.699850023,238.3539977
-0.699400008,238.5630069
-0.698949993,238.9110014
-0.698499978,239.1949965
-0.698050022,239.6490017
-0.697600007,240.0270023
-0.697149992,240.4900006
-0.696699977,240.8589935
-0.696250021,241.2570029
-0.695800006,241.546004
-0.695349991,241.9359953
-0.694899976,242.1649988
-0.694450021,242.4550039
-0.694000006,242.6300052
-0.693549991,242.7760046
-0.693099976,242.7470026
-0.69265002,242.8529988
-0.692200005,242.7370055
-0.69174999,242.7459985
-0.691299975,242.737995
-0.690850019,242.8279986
-0.690400004,242.7889995
-0.689949989,243.0169989
-0.689499974,243.0510067
-0.689050019,243.0930035
-0.688600004,242.973998
-0.688149989,242.9549932
-0.687699974,242.5550047
-0.687250018,242.3319966
-0.686800003,242.0920064
-0.686349988,241.9109951
-0.685899973,241.5920026
-0.685450017,241.6710049
-0.685000002,241.643007
-0.684549987,241.583999
-0.684099972,241.5439958
-0.683650017,241.5329946
-0.683200002,241.116999
-0.682749987,240.6849962
-0.682299972,240.1649981
-0.681850016,239.6409982
-0.681400001,239.0180016
-0.680949986,238.5889966
-0.680499971,238.1499944
-0.680050015,237.8759964
-0.6796,237.5710028
-0.679149985,237.4920005
-0.67869997,237.404005
-0.678250015,237.2519957
-0.6778,237.0089933
-0.677349985,236.8429996
-0.676900029,236.5219989
-0.676450014,236.2009982
-0.675999999,236.0240032
-0.675549984,235.8280035
-0.675100029,235.3900054
-0.674650013,234.8929993
-0.674199998,234.4310051
-0.673749983,234.0000065
-0.673300028,233.6890029
-0.672850013,233.6949983
-0.672399998,233.933999
-0.671949983,234.3109954
-0.671500027,234.6319961
-0.671050012,234.991996
-0.670599997,235.2199954
-0.670149982,235.3150048
-0.669700027,235.1010044
-0.669250011,234.8160051
-0.668799996,234.2609951
-0.668349981,233.7299957
-0.667900026,233.1519936
-0.667450011,232.8779956
-0.666999996,232.6859976
-0.666549981,232.7810071
-0.666100025,232.9220006
-0.66565001,233.1860014
-0.665199995,233.3229932
-0.66474998,233.3199955
-0.664300025,233.1309952
-0.663850009,232.7969996
-0.663399994,232.2899963
-0.662949979,231.6390019
-0.662500024,231.2080032
-0.662050009,230.8469993
-0.661599994,230.6160022
-0.661149979,230.5800008
-0.660700023,230.6649985
-0.660250008,230.635007
-0.659799993,230.4840018
-0.659349978,230.2710054
-0.658900023,229.9530024
-0.658450007,229.5940067
-0.657999992,229.2559948
-0.657549977,229.0730044
-0.657100022,228.8679971
-0.656650007,228.5619994
-0.656199992,228.2750065
-0.655749977,227.8360043
-0.655300021,227.2330021
-0.654850006,226.6079973
-0.654399991,226.0390029
-0.653949976,225.308002
-0.653500021,224.6710064
-0.653050005,224.1460024
-0.65259999,223.6750006
-0.652149975,223.2349943
-0.65170002,223.1069957
-0.651250005,223.0789978
-0.65079999,223.1319959
